# phi
# H field
0.000000	0.532216
0.360360	0.531988
0.720721	0.531304
1.081081	0.530166
1.441441	0.528574
1.801802	0.526531
2.162162	0.524040
2.522523	0.521103
2.882883	0.517726
3.243243	0.513913
3.603604	0.509669
3.963964	0.505001
4.324324	0.499914
4.684685	0.494417
5.045045	0.488518
5.405405	0.482225
5.765766	0.475549
6.126126	0.468500
6.486486	0.461090
6.846847	0.453331
7.207207	0.445237
7.567568	0.436822
7.927928	0.428103
8.288288	0.419096
8.648649	0.409820
9.009009	0.400296
9.369369	0.390545
9.729730	0.380590
10.090090	0.370459
10.450450	0.360180
10.810811	0.349784
11.171171	0.339306
11.531532	0.328784
11.891892	0.318261
12.252252	0.307783
12.612613	0.297404
12.972973	0.287181
13.333333	0.277180
13.693694	0.267473
14.054054	0.258139
14.414414	0.249268
14.774775	0.240955
15.135135	0.233303
15.495495	0.226419
15.855856	0.220416
16.216216	0.215403
16.576577	0.211482
16.936937	0.208744
17.297297	0.207262
17.657658	0.207081
18.018018	0.208223
18.378378	0.210677
18.738739	0.214404
19.099099	0.219341
19.459459	0.225408
19.819820	0.232510
20.180180	0.240546
20.540541	0.249412
20.900901	0.259007
21.261261	0.269234
21.621622	0.280003
21.981982	0.291229
22.342342	0.302838
22.702703	0.314759
23.063063	0.326930
23.423423	0.339296
23.783784	0.351804
24.144144	0.364409
24.504505	0.377071
24.864865	0.389750
25.225225	0.402413
25.585586	0.415029
25.945946	0.427569
26.306306	0.440007
26.666667	0.452319
27.027027	0.464483
27.387387	0.476478
27.747748	0.488286
28.108108	0.499889
28.468468	0.511270
28.828829	0.522416
29.189189	0.533311
29.549550	0.543943
29.909910	0.554299
30.270270	0.564370
30.630631	0.574145
30.990991	0.583614
31.351351	0.592769
31.711712	0.601602
32.072072	0.610107
32.432432	0.618278
32.792793	0.626109
33.153153	0.633595
33.513514	0.640733
33.873874	0.647520
34.234234	0.653954
34.594595	0.660032
34.954955	0.665754
35.315315	0.671120
35.675676	0.676131
36.036036	0.680787
36.396396	0.685091
36.756757	0.689046
37.117117	0.692656
37.477477	0.695925
37.837838	0.698857
38.198198	0.701460
38.558559	0.703740
38.918919	0.705704
39.279279	0.707361
39.639640	0.708720
40.000000	0.709791
40.360360	0.710585
40.720721	0.711113
41.081081	0.711388
41.441441	0.711423
41.801802	0.711232
42.162162	0.710829
42.522523	0.710231
42.882883	0.709454
43.243243	0.708514
43.603604	0.707430
43.963964	0.706221
44.324324	0.704905
44.684685	0.703502
45.045045	0.702034
45.405405	0.700520
45.765766	0.698983
46.126126	0.697445
46.486486	0.695927
46.846847	0.694452
47.207207	0.693044
47.567568	0.691724
47.927928	0.690516
48.288288	0.689443
48.648649	0.688526
49.009009	0.687787
49.369369	0.687249
49.729730	0.686931
50.090090	0.686854
50.450450	0.687036
50.810811	0.687495
51.171171	0.688249
51.531532	0.689311
51.891892	0.690697
52.252252	0.692417
52.612613	0.694483
52.972973	0.696904
53.333333	0.699685
53.693694	0.702833
54.054054	0.706350
54.414414	0.710238
54.774775	0.714497
55.135135	0.719123
55.495495	0.724112
55.855856	0.729460
56.216216	0.735157
56.576577	0.741196
56.936937	0.747566
57.297297	0.754255
57.657658	0.761251
58.018018	0.768538
58.378378	0.776103
58.738739	0.783930
59.099099	0.792002
59.459459	0.800303
59.819820	0.808815
60.180180	0.817520
60.540541	0.826401
60.900901	0.835439
61.261261	0.844616
61.621622	0.853915
61.981982	0.863317
62.342342	0.872805
62.702703	0.882361
63.063063	0.891968
63.423423	0.901609
63.783784	0.911269
64.144144	0.920930
64.504505	0.930578
64.864865	0.940198
65.225225	0.949776
65.585586	0.959297
65.945946	0.968749
66.306306	0.978119
66.666667	0.987396
67.027027	0.996568
67.387387	1.005624
67.747748	1.014555
68.108108	1.023351
68.468468	1.032005
68.828829	1.040507
69.189189	1.048851
69.549550	1.057030
69.909910	1.065038
70.270270	1.072871
70.630631	1.080523
70.990991	1.087991
71.351351	1.095271
71.711712	1.102362
72.072072	1.109260
72.432432	1.115966
72.792793	1.122478
73.153153	1.128796
73.513514	1.134921
73.873874	1.140854
74.234234	1.146597
74.594595	1.152152
74.954955	1.157522
75.315315	1.162711
75.675676	1.167722
76.036036	1.172561
76.396396	1.177231
76.756757	1.181740
77.117117	1.186091
77.477477	1.190292
77.837838	1.194350
78.198198	1.198272
78.558559	1.202064
78.918919	1.205736
79.279279	1.209294
79.639640	1.212748
80.000000	1.216106
80.360360	1.219377
80.720721	1.222570
81.081081	1.225693
81.441441	1.228757
81.801802	1.231771
82.162162	1.234744
82.522523	1.237686
82.882883	1.240605
83.243243	1.243512
83.603604	1.246416
83.963964	1.249325
84.324324	1.252250
84.684685	1.255198
85.045045	1.258179
85.405405	1.261200
85.765766	1.264270
86.126126	1.267396
86.486486	1.270586
86.846847	1.273847
87.207207	1.277186
87.567568	1.280608
87.927928	1.284120
88.288288	1.287726
88.648649	1.291432
89.009009	1.295242
89.369369	1.299159
89.729730	1.303187
90.090090	1.307329
90.450450	1.311587
90.810811	1.315962
91.171171	1.320456
91.531532	1.325069
91.891892	1.329801
92.252252	1.334652
92.612613	1.339621
92.972973	1.344707
93.333333	1.349907
93.693694	1.355219
94.054054	1.360641
94.414414	1.366168
94.774775	1.371798
95.135135	1.377526
95.495495	1.383348
95.855856	1.389260
96.216216	1.395255
96.576577	1.401329
96.936937	1.407477
97.297297	1.413692
97.657658	1.419969
98.018018	1.426301
98.378378	1.432682
98.738739	1.439106
99.099099	1.445566
99.459459	1.452055
99.819820	1.458568
100.180180	1.465098
100.540541	1.471637
100.900901	1.478179
101.261261	1.484719
101.621622	1.491249
101.981982	1.497763
102.342342	1.504255
102.702703	1.510720
103.063063	1.517150
103.423423	1.523541
103.783784	1.529886
104.144144	1.536181
104.504505	1.542420
104.864865	1.548598
105.225225	1.554711
105.585586	1.560755
105.945946	1.566724
106.306306	1.572615
106.666667	1.578425
107.027027	1.584149
107.387387	1.589785
107.747748	1.595330
108.108108	1.600780
108.468468	1.606135
108.828829	1.611391
109.189189	1.616546
109.549550	1.621600
109.909910	1.626551
110.270270	1.631397
110.630631	1.636138
110.990991	1.640774
111.351351	1.645304
111.711712	1.649728
112.072072	1.654046
112.432432	1.658259
112.792793	1.662368
113.153153	1.666372
113.513514	1.670274
113.873874	1.674074
114.234234	1.677774
114.594595	1.681376
114.954955	1.684882
115.315315	1.688293
115.675676	1.691611
116.036036	1.694839
116.396396	1.697980
116.756757	1.701035
117.117117	1.704008
117.477477	1.706901
117.837838	1.709717
118.198198	1.712459
118.558559	1.715130
118.918919	1.717733
119.279279	1.720271
119.639640	1.722747
120.000000	1.725165
120.360360	1.727527
120.720721	1.729838
121.081081	1.732099
121.441441	1.734314
121.801802	1.736487
122.162162	1.738621
122.522523	1.740718
122.882883	1.742782
123.243243	1.744816
123.603604	1.746822
123.963964	1.748804
124.324324	1.750765
124.684685	1.752706
125.045045	1.754631
125.405405	1.756543
125.765766	1.758444
126.126126	1.760335
126.486486	1.762220
126.846847	1.764100
127.207207	1.765978
127.567568	1.767856
127.927928	1.769734
128.288288	1.771615
128.648649	1.773501
129.009009	1.775392
129.369369	1.777291
129.729730	1.779197
130.090090	1.781113
130.450450	1.783039
130.810811	1.784976
131.171171	1.786924
131.531532	1.788885
131.891892	1.790858
132.252252	1.792843
132.612613	1.794842
132.972973	1.796854
133.333333	1.798879
133.693694	1.800916
134.054054	1.802967
134.414414	1.805029
134.774775	1.807104
135.135135	1.809190
135.495495	1.811286
135.855856	1.813393
136.216216	1.815509
136.576577	1.817634
136.936937	1.819766
137.297297	1.821905
137.657658	1.824050
138.018018	1.826199
138.378378	1.828353
138.738739	1.830508
139.099099	1.832665
139.459459	1.834822
139.819820	1.836978
140.180180	1.839132
140.540541	1.841282
140.900901	1.843427
141.261261	1.845566
141.621622	1.847698
141.981982	1.849821
142.342342	1.851934
142.702703	1.854036
143.063063	1.856126
143.423423	1.858202
143.783784	1.860263
144.144144	1.862308
144.504505	1.864336
144.864865	1.866346
145.225225	1.868336
145.585586	1.870306
145.945946	1.872254
146.306306	1.874180
146.666667	1.876083
147.027027	1.877961
147.387387	1.879813
147.747748	1.881640
148.108108	1.883440
148.468468	1.885212
148.828829	1.886956
149.189189	1.888671
149.549550	1.890356
149.909910	1.892011
150.270270	1.893636
150.630631	1.895229
150.990991	1.896791
151.351351	1.898321
151.711712	1.899818
152.072072	1.901283
152.432432	1.902716
152.792793	1.904115
153.153153	1.905482
153.513514	1.906815
153.873874	1.908115
154.234234	1.909381
154.594595	1.910615
154.954955	1.911815
155.315315	1.912983
155.675676	1.914117
156.036036	1.915219
156.396396	1.916288
156.756757	1.917325
157.117117	1.918329
157.477477	1.919303
157.837838	1.920244
158.198198	1.921155
158.558559	1.922035
158.918919	1.922886
159.279279	1.923706
159.639640	1.924497
160.000000	1.925259
160.360360	1.925993
160.720721	1.926700
161.081081	1.927379
161.441441	1.928031
161.801802	1.928657
162.162162	1.929258
162.522523	1.929834
162.882883	1.930385
163.243243	1.930913
163.603604	1.931418
163.963964	1.931900
164.324324	1.932360
164.684685	1.932799
165.045045	1.933217
165.405405	1.933615
165.765766	1.933994
166.126126	1.934354
166.486486	1.934696
166.846847	1.935020
167.207207	1.935328
167.567568	1.935619
167.927928	1.935894
168.288288	1.936154
168.648649	1.936400
169.009009	1.936632
169.369369	1.936850
169.729730	1.937055
170.090090	1.937248
170.450450	1.937430
170.810811	1.937600
171.171171	1.937759
171.531532	1.937907
171.891892	1.938046
172.252252	1.938176
172.612613	1.938296
172.972973	1.938408
173.333333	1.938512
173.693694	1.938608
174.054054	1.938697
174.414414	1.938778
174.774775	1.938853
175.135135	1.938922
175.495495	1.938984
175.855856	1.939040
176.216216	1.939091
176.576577	1.939137
176.936937	1.939177
177.297297	1.939213
177.657658	1.939243
178.018018	1.939269
178.378378	1.939290
178.738739	1.939307
179.099099	1.939320
179.459459	1.939329
179.819820	1.939333
180.180180	1.939333
180.540541	1.939329
180.900901	1.939320
181.261261	1.939307
181.621622	1.939290
181.981982	1.939269
182.342342	1.939243
182.702703	1.939213
183.063063	1.939177
183.423423	1.939137
183.783784	1.939091
184.144144	1.939040
184.504505	1.938984
184.864865	1.938922
185.225225	1.938853
185.585586	1.938778
185.945946	1.938697
186.306306	1.938608
186.666667	1.938512
187.027027	1.938408
187.387387	1.938296
187.747748	1.938176
188.108108	1.938046
188.468468	1.937907
188.828829	1.937759
189.189189	1.937600
189.549550	1.937430
189.909910	1.937248
190.270270	1.937055
190.630631	1.936850
190.990991	1.936632
191.351351	1.936400
191.711712	1.936154
192.072072	1.935894
192.432432	1.935619
192.792793	1.935328
193.153153	1.935020
193.513514	1.934696
193.873874	1.934354
194.234234	1.933994
194.594595	1.933615
194.954955	1.933217
195.315315	1.932799
195.675676	1.932360
196.036036	1.931900
196.396396	1.931418
196.756757	1.930913
197.117117	1.930385
197.477477	1.929834
197.837838	1.929258
198.198198	1.928657
198.558559	1.928031
198.918919	1.927379
199.279279	1.926700
199.639640	1.925993
200.000000	1.925259
200.360360	1.924497
200.720721	1.923706
201.081081	1.922886
201.441441	1.922035
201.801802	1.921155
202.162162	1.920244
202.522523	1.919303
202.882883	1.918329
203.243243	1.917325
203.603604	1.916288
203.963964	1.915219
204.324324	1.914117
204.684685	1.912983
205.045045	1.911815
205.405405	1.910615
205.765766	1.909381
206.126126	1.908115
206.486486	1.906815
206.846847	1.905482
207.207207	1.904115
207.567568	1.902716
207.927928	1.901283
208.288288	1.899818
208.648649	1.898321
209.009009	1.896791
209.369369	1.895229
209.729730	1.893636
210.090090	1.892011
210.450450	1.890356
210.810811	1.888671
211.171171	1.886956
211.531532	1.885212
211.891892	1.883440
212.252252	1.881640
212.612613	1.879813
212.972973	1.877961
213.333333	1.876083
213.693694	1.874180
214.054054	1.872254
214.414414	1.870306
214.774775	1.868336
215.135135	1.866346
215.495495	1.864336
215.855856	1.862308
216.216216	1.860263
216.576577	1.858202
216.936937	1.856126
217.297297	1.854036
217.657658	1.851934
218.018018	1.849821
218.378378	1.847698
218.738739	1.845566
219.099099	1.843427
219.459459	1.841282
219.819820	1.839132
220.180180	1.836978
220.540541	1.834822
220.900901	1.832665
221.261261	1.830508
221.621622	1.828353
221.981982	1.826199
222.342342	1.824050
222.702703	1.821905
223.063063	1.819766
223.423423	1.817634
223.783784	1.815509
224.144144	1.813393
224.504505	1.811286
224.864865	1.809190
225.225225	1.807104
225.585586	1.805029
225.945946	1.802967
226.306306	1.800916
226.666667	1.798879
227.027027	1.796854
227.387387	1.794842
227.747748	1.792843
228.108108	1.790858
228.468468	1.788885
228.828829	1.786924
229.189189	1.784976
229.549550	1.783039
229.909910	1.781113
230.270270	1.779197
230.630631	1.777291
230.990991	1.775392
231.351351	1.773501
231.711712	1.771615
232.072072	1.769734
232.432432	1.767856
232.792793	1.765978
233.153153	1.764100
233.513514	1.762220
233.873874	1.760335
234.234234	1.758444
234.594595	1.756543
234.954955	1.754631
235.315315	1.752706
235.675676	1.750765
236.036036	1.748804
236.396396	1.746822
236.756757	1.744816
237.117117	1.742782
237.477477	1.740718
237.837838	1.738621
238.198198	1.736487
238.558559	1.734314
238.918919	1.732099
239.279279	1.729838
239.639640	1.727527
240.000000	1.725165
240.360360	1.722747
240.720721	1.720271
241.081081	1.717733
241.441441	1.715130
241.801802	1.712459
242.162162	1.709717
242.522523	1.706901
242.882883	1.704008
243.243243	1.701035
243.603604	1.697980
243.963964	1.694839
244.324324	1.691611
244.684685	1.688293
245.045045	1.684882
245.405405	1.681376
245.765766	1.677774
246.126126	1.674074
246.486486	1.670274
246.846847	1.666372
247.207207	1.662368
247.567568	1.658259
247.927928	1.654046
248.288288	1.649728
248.648649	1.645304
249.009009	1.640774
249.369369	1.636138
249.729730	1.631397
250.090090	1.626551
250.450450	1.621600
250.810811	1.616546
251.171171	1.611391
251.531532	1.606135
251.891892	1.600780
252.252252	1.595330
252.612613	1.589785
252.972973	1.584149
253.333333	1.578425
253.693694	1.572615
254.054054	1.566724
254.414414	1.560755
254.774775	1.554711
255.135135	1.548598
255.495495	1.542420
255.855856	1.536181
256.216216	1.529886
256.576577	1.523541
256.936937	1.517150
257.297297	1.510720
257.657658	1.504255
258.018018	1.497763
258.378378	1.491249
258.738739	1.484719
259.099099	1.478179
259.459459	1.471637
259.819820	1.465098
260.180180	1.458568
260.540541	1.452055
260.900901	1.445566
261.261261	1.439106
261.621622	1.432682
261.981982	1.426301
262.342342	1.419969
262.702703	1.413692
263.063063	1.407477
263.423423	1.401329
263.783784	1.395255
264.144144	1.389260
264.504505	1.383348
264.864865	1.377526
265.225225	1.371798
265.585586	1.366168
265.945946	1.360641
266.306306	1.355219
266.666667	1.349907
267.027027	1.344707
267.387387	1.339621
267.747748	1.334652
268.108108	1.329801
268.468468	1.325069
268.828829	1.320456
269.189189	1.315962
269.549550	1.311587
269.909910	1.307329
270.270270	1.303187
270.630631	1.299159
270.990991	1.295242
271.351351	1.291432
271.711712	1.287726
272.072072	1.284120
272.432432	1.280608
272.792793	1.277186
273.153153	1.273847
273.513514	1.270586
273.873874	1.267396
274.234234	1.264270
274.594595	1.261200
274.954955	1.258179
275.315315	1.255198
275.675676	1.252250
276.036036	1.249325
276.396396	1.246416
276.756757	1.243512
277.117117	1.240605
277.477477	1.237686
277.837838	1.234744
278.198198	1.231771
278.558559	1.228757
278.918919	1.225693
279.279279	1.222570
279.639640	1.219377
280.000000	1.216106
280.360360	1.212748
280.720721	1.209294
281.081081	1.205736
281.441441	1.202064
281.801802	1.198272
282.162162	1.194350
282.522523	1.190292
282.882883	1.186091
283.243243	1.181740
283.603604	1.177231
283.963964	1.172561
284.324324	1.167722
284.684685	1.162711
285.045045	1.157522
285.405405	1.152152
285.765766	1.146597
286.126126	1.140854
286.486486	1.134921
286.846847	1.128796
287.207207	1.122478
287.567568	1.115966
287.927928	1.109260
288.288288	1.102362
288.648649	1.095271
289.009009	1.087991
289.369369	1.080523
289.729730	1.072871
290.090090	1.065038
290.450450	1.057030
290.810811	1.048851
291.171171	1.040507
291.531532	1.032005
291.891892	1.023351
292.252252	1.014555
292.612613	1.005624
292.972973	0.996568
293.333333	0.987396
293.693694	0.978119
294.054054	0.968749
294.414414	0.959297
294.774775	0.949776
295.135135	0.940198
295.495495	0.930578
295.855856	0.920930
296.216216	0.911269
296.576577	0.901609
296.936937	0.891968
297.297297	0.882361
297.657658	0.872805
298.018018	0.863317
298.378378	0.853915
298.738739	0.844616
299.099099	0.835439
299.459459	0.826401
299.819820	0.817520
300.180180	0.808815
300.540541	0.800303
300.900901	0.792002
301.261261	0.783930
301.621622	0.776103
301.981982	0.768538
302.342342	0.761251
302.702703	0.754255
303.063063	0.747566
303.423423	0.741196
303.783784	0.735157
304.144144	0.729460
304.504505	0.724112
304.864865	0.719123
305.225225	0.714497
305.585586	0.710238
305.945946	0.706350
306.306306	0.702833
306.666667	0.699685
307.027027	0.696904
307.387387	0.694483
307.747748	0.692417
308.108108	0.690697
308.468468	0.689311
308.828829	0.688249
309.189189	0.687495
309.549550	0.687036
309.909910	0.686854
310.270270	0.686931
310.630631	0.687249
310.990991	0.687787
311.351351	0.688526
311.711712	0.689443
312.072072	0.690516
312.432432	0.691724
312.792793	0.693044
313.153153	0.694452
313.513514	0.695927
313.873874	0.697445
314.234234	0.698983
314.594595	0.700520
314.954955	0.702034
315.315315	0.703502
315.675676	0.704905
316.036036	0.706221
316.396396	0.707430
316.756757	0.708514
317.117117	0.709454
317.477477	0.710231
317.837838	0.710829
318.198198	0.711232
318.558559	0.711423
318.918919	0.711388
319.279279	0.711113
319.639640	0.710585
320.000000	0.709791
320.360360	0.708720
320.720721	0.707361
321.081081	0.705704
321.441441	0.703740
321.801802	0.701460
322.162162	0.698857
322.522523	0.695925
322.882883	0.692656
323.243243	0.689046
323.603604	0.685091
323.963964	0.680787
324.324324	0.676131
324.684685	0.671120
325.045045	0.665754
325.405405	0.660032
325.765766	0.653954
326.126126	0.647520
326.486486	0.640733
326.846847	0.633595
327.207207	0.626109
327.567568	0.618278
327.927928	0.610107
328.288288	0.601602
328.648649	0.592769
329.009009	0.583614
329.369369	0.574145
329.729730	0.564370
330.090090	0.554299
330.450450	0.543943
330.810811	0.533311
331.171171	0.522416
331.531532	0.511270
331.891892	0.499889
332.252252	0.488286
332.612613	0.476478
332.972973	0.464483
333.333333	0.452319
333.693694	0.440007
334.054054	0.427569
334.414414	0.415029
334.774775	0.402413
335.135135	0.389750
335.495495	0.377071
335.855856	0.364409
336.216216	0.351804
336.576577	0.339296
336.936937	0.326930
337.297297	0.314759
337.657658	0.302838
338.018018	0.291229
338.378378	0.280003
338.738739	0.269234
339.099099	0.259007
339.459459	0.249412
339.819820	0.240546
340.180180	0.232510
340.540541	0.225408
340.900901	0.219341
341.261261	0.214404
341.621622	0.210677
341.981982	0.208223
342.342342	0.207081
342.702703	0.207262
343.063063	0.208744
343.423423	0.211482
343.783784	0.215403
344.144144	0.220416
344.504505	0.226419
344.864865	0.233303
345.225225	0.240955
345.585586	0.249268
345.945946	0.258139
346.306306	0.267473
346.666667	0.277180
347.027027	0.287181
347.387387	0.297404
347.747748	0.307783
348.108108	0.318261
348.468468	0.328784
348.828829	0.339306
349.189189	0.349784
349.549550	0.360180
349.909910	0.370459
350.270270	0.380590
350.630631	0.390545
350.990991	0.400296
351.351351	0.409820
351.711712	0.419096
352.072072	0.428103
352.432432	0.436822
352.792793	0.445237
353.153153	0.453331
353.513514	0.461090
353.873874	0.468500
354.234234	0.475549
354.594595	0.482225
354.954955	0.488518
355.315315	0.494417
355.675676	0.499914
356.036036	0.505001
356.396396	0.509669
356.756757	0.513913
357.117117	0.517726
357.477477	0.521103
357.837838	0.524040
358.198198	0.526531
358.558559	0.528574
358.918919	0.530166
359.279279	0.531304
359.639640	0.531988
360.000000	0.532216
